3D-rrbc, Ra:1.00e+05, Ek:1.00e-01, Nz:32, Ny:32, Nx:32, Pr:7.0, 
time	Re	Nu-top	Nu-bottom	Nu-midplane	Nu-integral	umax	vmax	wmax	buoyancy	dissip	energy-balance	nu-error	D_visc	thermal_dissipation	
1.0000e-05	0.0000e+00	6.5034e-04	-3.7573e-03	6.4971e-05	-3.3469e-06	0.0000e+00	0.0000e+00	0.0000e+00	-3.3469e-01	-0.0000e+00	  inf	1.1216e+03	1.2073e-04	0.0000e+00	
1.1000e-04	1.7199e-04	-4.9460e-04	4.9527e-04	3.9782e-05	4.2194e-08	1.7814e-03	1.6818e-03	4.4538e-03	4.2194e-03	3.6681e-03	1.5028e-01	1.1737e+04	1.1683e-05	3.6688e-03	
2.1000e-04	2.0300e-04	-3.9132e-04	3.4408e-04	2.0636e-05	3.1479e-08	2.0430e-03	2.1435e-03	4.9767e-03	3.1479e-03	2.8358e-03	1.1008e-01	1.2432e+04	3.3280e-06	2.8359e-03	
3.1000e-04	2.2059e-04	-2.6355e-04	2.3294e-04	9.5792e-06	2.5622e-08	2.2097e-03	2.3106e-03	5.5567e-03	2.5622e-03	2.3407e-03	9.4620e-02	1.0287e+04	1.3706e-06	2.3408e-03	
4.1000e-04	2.3298e-04	-1.6924e-04	1.6158e-04	3.7047e-06	2.2004e-08	2.3509e-03	2.3266e-03	5.9998e-03	2.2004e-03	2.0228e-03	8.7767e-02	7.6924e+03	7.0487e-07	2.0229e-03	
5.1000e-04	2.4290e-04	-1.0645e-04	1.1574e-04	7.3878e-07	1.9550e-08	2.4569e-03	2.2809e-03	6.3287e-03	1.9550e-03	1.7986e-03	8.6963e-02	5.9192e+03	4.1681e-07	1.7986e-03	
6.1000e-04	2.5162e-04	-6.5973e-05	8.5964e-05	-6.6881e-07	1.7796e-08	2.5347e-03	2.2098e-03	6.5824e-03	1.7796e-03	1.6319e-03	9.0546e-02	4.8294e+03	2.7069e-07	1.6319e-03	
7.1000e-04	2.5977e-04	-4.0096e-05	6.6303e-05	-1.2682e-06	1.6508e-08	2.5942e-03	2.2865e-03	6.7847e-03	1.6508e-03	1.5043e-03	9.7327e-02	4.0155e+03	1.8797e-07	1.5043e-03	
8.1000e-04	2.6773e-04	-2.3522e-05	5.3029e-05	-1.4643e-06	1.5550e-08	2.6441e-03	2.3617e-03	6.9514e-03	1.5550e-03	1.4054e-03	1.0650e-01	3.4092e+03	1.3727e-07	1.4054e-03	
9.1000e-04	2.7570e-04	-1.2830e-05	4.3814e-05	-1.4706e-06	1.4842e-08	2.6856e-03	2.4215e-03	7.0932e-03	1.4842e-03	1.3281e-03	1.1754e-01	2.9510e+03	1.0427e-07	1.3281e-03	
1.0100e-03	2.8381e-04	-5.8624e-06	3.7203e-05	-1.3970e-06	1.4330e-08	2.7203e-03	2.4751e-03	7.2214e-03	1.4330e-03	1.2680e-03	1.3009e-01	2.5952e+03	8.1750e-08	1.2680e-03	
1.1100e-03	2.9217e-04	-1.2716e-06	3.2291e-05	-1.2977e-06	1.3977e-08	2.7511e-03	2.5366e-03	7.3474e-03	1.3977e-03	1.2219e-03	1.4391e-01	2.3093e+03	6.5793e-08	1.2219e-03	
1.2100e-03	3.0085e-04	1.7850e-06	2.8506e-05	-1.1972e-06	1.3758e-08	2.7800e-03	2.5921e-03	7.4607e-03	1.3758e-03	1.1872e-03	1.5884e-01	2.0710e+03	5.4133e-08	1.1872e-03	
1.3100e-03	3.0989e-04	3.8366e-06	2.5490e-05	-1.1052e-06	1.3655e-08	2.8085e-03	2.6433e-03	7.5667e-03	1.3655e-03	1.1624e-03	1.7476e-01	1.8657e+03	4.5396e-08	1.1624e-03	
1.4100e-03	3.1936e-04	5.2185e-06	2.3013e-05	-1.0240e-06	1.3657e-08	2.8376e-03	2.6915e-03	7.6694e-03	1.3657e-03	1.1461e-03	1.9155e-01	1.6841e+03	3.8709e-08	1.1461e-03	
1.5100e-03	3.2929e-04	6.1456e-06	2.0928e-05	-9.5279e-07	1.3753e-08	2.8697e-03	2.7377e-03	7.7720e-03	1.3753e-03	1.1374e-03	2.0912e-01	1.5207e+03	3.3500e-08	1.1374e-03	
1.6100e-03	3.3973e-04	6.7574e-06	1.9139e-05	-8.8937e-07	1.3938e-08	2.9036e-03	2.7827e-03	7.8784e-03	1.3938e-03	1.1356e-03	2.2741e-01	1.3721e+03	2.9383e-08	1.1356e-03	
1.7100e-03	3.5071e-04	7.1463e-06	1.7579e-05	-8.3155e-07	1.4210e-08	2.9398e-03	2.8272e-03	7.9988e-03	1.4210e-03	1.1401e-03	2.4632e-01	1.2361e+03	2.6088e-08	1.1401e-03	
1.8100e-03	3.6228e-04	7.3745e-06	1.6206e-05	-7.7740e-07	1.4565e-08	2.9786e-03	2.8718e-03	8.1266e-03	1.4565e-03	1.1507e-03	2.6578e-01	1.1116e+03	2.3424e-08	1.1507e-03	
1.9100e-03	3.7448e-04	7.4847e-06	1.4987e-05	-7.2542e-07	1.5005e-08	3.0203e-03	2.9170e-03	8.2629e-03	1.5005e-03	1.1670e-03	2.8571e-01	9.9779e+02	2.1253e-08	1.1670e-03	
2.0100e-03	3.8734e-04	7.5071e-06	1.3900e-05	-6.7456e-07	1.5530e-08	3.0661e-03	2.9632e-03	8.4086e-03	1.5530e-03	1.1891e-03	3.0605e-01	8.9403e+02	1.9473e-08	1.1891e-03	
2.1100e-03	4.0091e-04	7.4631e-06	1.2927e-05	-6.2412e-07	1.6143e-08	3.1330e-03	3.0107e-03	8.5646e-03	1.6143e-03	1.2167e-03	3.2672e-01	7.9978e+02	1.8006e-08	1.2167e-03	
2.2100e-03	4.1523e-04	7.3686e-06	1.2054e-05	-5.7372e-07	1.6847e-08	3.2004e-03	3.0599e-03	8.7316e-03	1.6847e-03	1.2501e-03	3.4764e-01	7.1450e+02	1.6795e-08	1.2501e-03	
2.3100e-03	4.3035e-04	7.2356e-06	1.1270e-05	-5.2319e-07	1.7648e-08	3.2687e-03	3.1110e-03	8.9104e-03	1.7648e-03	1.2893e-03	3.6876e-01	6.3762e+02	1.5796e-08	1.2893e-03	
2.4100e-03	4.4630e-04	7.0730e-06	1.0566e-05	-4.7251e-07	1.8551e-08	3.3383e-03	3.1642e-03	9.1017e-03	1.8551e-03	1.3346e-03	3.8999e-01	5.6855e+02	1.4973e-08	1.3346e-03	
2.5100e-03	4.6313e-04	6.8878e-06	9.9321e-06	-4.2177e-07	1.9563e-08	3.4096e-03	3.2199e-03	9.3061e-03	1.9563e-03	1.3862e-03	4.1129e-01	5.0670e+02	1.4300e-08	1.3862e-03	
2.6100e-03	4.8090e-04	6.6857e-06	9.3624e-06	-3.7110e-07	2.0692e-08	3.4828e-03	3.2782e-03	9.5243e-03	2.0692e-03	1.4444e-03	4.3258e-01	4.5145e+02	1.3756e-08	1.4444e-03	
2.7100e-03	4.9965e-04	6.4708e-06	8.8500e-06	-3.2067e-07	2.1949e-08	3.5934e-03	3.3394e-03	9.7572e-03	2.1949e-03	1.5097e-03	4.5381e-01	4.0222e+02	1.3324e-08	1.5097e-03	
2.8100e-03	5.1944e-04	6.2468e-06	8.3894e-06	-2.7064e-07	2.3342e-08	3.7098e-03	3.4036e-03	1.0005e-02	2.3342e-03	1.5826e-03	4.7493e-01	3.5841e+02	1.2990e-08	1.5826e-03	
2.9100e-03	5.4032e-04	6.0165e-06	7.9753e-06	-2.2118e-07	2.4884e-08	3.8327e-03	3.4847e-03	1.0269e-02	2.4884e-03	1.6635e-03	4.9589e-01	3.1949e+02	1.2745e-08	1.6635e-03	
3.0100e-03	5.6234e-04	5.7821e-06	7.6031e-06	-1.7243e-07	2.6589e-08	3.9708e-03	3.6184e-03	1.0550e-02	2.6589e-03	1.7532e-03	5.1663e-01	2.8494e+02	1.2581e-08	1.7532e-03	
3.1100e-03	5.8558e-04	5.5455e-06	7.2687e-06	-1.2449e-07	2.8472e-08	4.1149e-03	3.7579e-03	1.0868e-02	2.8472e-03	1.8523e-03	5.3712e-01	2.5429e+02	1.2490e-08	1.8523e-03	
3.2100e-03	6.1008e-04	5.3081e-06	6.9683e-06	-7.7453e-08	3.0549e-08	4.2656e-03	3.9034e-03	1.1259e-02	3.0549e-03	1.9616e-03	5.5732e-01	2.2711e+02	1.2469e-08	1.9616e-03	
3.3100e-03	6.3593e-04	5.0713e-06	6.6986e-06	-3.1371e-08	3.2838e-08	4.4230e-03	4.0555e-03	1.1670e-02	3.2838e-03	2.0821e-03	5.7718e-01	2.0299e+02	1.2514e-08	2.0821e-03	
3.4100e-03	6.6318e-04	4.8359e-06	6.4564e-06	1.3728e-08	3.5360e-08	4.5875e-03	4.2144e-03	1.2102e-02	3.5360e-03	2.2146e-03	5.9669e-01	1.8159e+02	1.2622e-08	2.2146e-03	
